EXPLAIN
TAG	CV
TITLE	LABEL	Cyclic Voltammetry	Test &Identifier
DATE	LABEL	20.4.2023	Date
TIME	LABEL	15:26:16	Time
NOTES	NOTES	1	&Notes...
	CV19-20042023-Au coated fluidfm WE-Pt RE- Pt sheet CE-10 Ul H2SO4 0,1M-DTA.DTA
PSTAT	PSTAT	REF600-25039	Potentiostat
VINIT	POTEN	2,00000E-001	F	Initial &E (V)
VLIMIT1	POTEN	-8,00000E-001	F	Scan Limit &1 (V)
VLIMIT2	POTEN	7,50000E-001	F	Scan Limit &2 (V)
VFINAL	POTEN	2,00000E-001	F	Final &E (V)
SCANRATE	QUANT	4,99999E+001	&Scan Rate (mV/s)
STEPSIZE	QUANT	3,00000E+000	St&ep Size (mV)
CYCLES	IQUANT	5	C&ycles (#)
IMODE	SELECTOR	1	I/E Range &Mode
IRANGE	QUANT	1,00000E+000	&Max Current (mA)
AREA	QUANT	1,00000E+000	Electrode &Area (cm^2)
ELECTRODETYPE	SELECTOR	0	Electrode Type
STRIPPING	TOGGLE	F	Used for Stripping
POLARITY	TOGGLE	F	Signal Polarity
CONDIT	TWOPARAM	F	1,00000E+001	-5,00000E-001	Conditionin&g	Time(s)	E(V)
DELAY	TWOPARAM	F	3,00000E+001	0,00000E+000	Init. De&lay	Time(s)	Stab.(mV/s)
EQDELAY	QUANT	0,00000E+000	Equil. &Time (s)
IRCOMP	SELECTOR	0	IRCom&p
PFCOR	QUANT	5,00000E+001	PF Corr. (ohm)
SAMPLINGMODE	SELECTOR	2	Sampling &Mode
EOC	QUANT	0	Open Circuit (V)
PSTATMODEL	IQUANT	4	Pstat Model
PSTATSECTION	LABEL	REF600-25039	Pstat Section
PSTATSERIALNO	LABEL	25039	Pstat Serial Number
CTRLMODE	IQUANT	1	Control Mode
ELECTROMETER	IQUANT	0	RE=0 or CS=1
IESTAB	IQUANT	2	I/E Stability
CASPEED	IQUANT	4	Control Amp Speed
CONVENTION	IQUANT	1	Current Convention
ICHRANGE	IQUANT	2	Ich Range
ICHRANGEMODE	TOGGLE	F	Ich Auto Range
ICHOFFSETENABLE	TOGGLE	F	Ich Offset Enable
ICHOFFSET	QUANT	0	Ich Offset (V)
ICHFILTER	IQUANT	2	Ich Filter
VCHRANGE	IQUANT	2	Vch Range
VCHRANGEMODE	TOGGLE	F	Vch Auto Range
VCHOFFSETENABLE	TOGGLE	F	Vch Offset Enable
VCHOFFSET	QUANT	0	Vch Offset (V)
VCHFILTER	IQUANT	2	Vch Filter
ACHRANGE	IQUANT	2	Ach Range
ACHOFFSETENABLE	TOGGLE	F	Ach Offset Enable
ACHOFFSET	QUANT	0	Ach Offset (V)
ACHFILTER	IQUANT	1	Ach Filter
IERANGELOWERLIMIT	IQUANT	1	I/E Range Lower Limit
IERANGEMODE	TOGGLE	F	I/E AutoRange
IERANGE	IQUANT	9	I/E Range
POSFEEDENABLE	TOGGLE	F	Positive Feedback IR Comp
POSFEEDRESISTANCE	QUANT	0	Positive Feedback Resistance (ohm)
ACHSELECT	IQUANT	0	Ach Select
SENSECABLEID	IQUANT	14	Sense Cable ID
PWRCABLEID	IQUANT	14	Power Cable ID
DCCALDATE	LABEL	12/14/2022	DC Calibration Date
ACCALDATE	LABEL	12/14/2022	AC Calibration Date
THERMOSELECT	IQUANT	1	Thermo Select
FRAMEWORKVERSION	QUANT	7,07	Framework Version
INSTRUMENTVERSION	LABEL	4.36	Instrument Version
EXPERIMENTABORTED	TOGGLE	T	Experiment Aborted
CURVE	TABLE	3597
	Pt	T	Vf	Im	Vu	Sig	Ach	IERange	Over	Cycle	Temp
	#	s	V vs. Ref.	A	V	V	V	#	bits	#	deg C
	0	0,06	2,00054E-001	1,72821E-005	0,00000E+000	2,00000E-001	6,45222E-004	9	..........a	0	-327,75
	1	0,12	1,97170E-001	1,04547E-005	0,00000E+000	1,97000E-001	-1,17889E-003	9	..........a	0	-327,75
	2	0,18	1,94145E-001	7,39702E-006	0,00000E+000	1,94000E-001	1,34667E-004	9	..........a	0	-327,75
	3	0,24	1,91114E-001	5,55683E-006	0,00000E+000	1,91000E-001	-1,18022E-003	9	..........a	0	-327,75
	4	0,3	1,88094E-001	4,25748E-006	0,00000E+000	1,88000E-001	5,70611E-004	9	..........a	0	-327,75
	5	0,36	1,85043E-001	3,27367E-006	0,00000E+000	1,85000E-001	-1,18000E-003	9	..........a	0	-327,75
	6	0,42	1,82069E-001	2,62458E-006	0,00000E+000	1,82000E-001	3,81333E-004	9	..........a	0	-327,75
	7	0,48	1,79068E-001	2,09602E-006	0,00000E+000	1,79000E-001	6,12611E-004	9	..........a	0	-327,75
	8	0,54	1,76101E-001	1,61454E-006	0,00000E+000	1,76000E-001	-1,17561E-003	9	..........a	0	-327,75
	9	0,6	1,73056E-001	1,18562E-006	0,00000E+000	1,73000E-001	4,38167E-004	9	..........a	0	-327,75
	10	0,66	1,70194E-001	9,50605E-007	0,00000E+000	1,70000E-001	-1,17689E-003	9	..........a	0	-327,75
	11	0,72	1,67164E-001	7,04471E-007	0,00000E+000	1,67000E-001	4,89611E-004	9	..........a	0	-327,75
	12	0,78	1,64102E-001	4,88459E-007	0,00000E+000	1,64000E-001	-1,17944E-003	9	..........a	0	-327,75
	13	0,84	1,61058E-001	2,75225E-007	0,00000E+000	1,61000E-001	5,09556E-004	9	..........a	0	-327,75
	14	0,9	1,58084E-001	3,52606E-008	0,00000E+000	1,58000E-001	3,51111E-004	9	..........a	0	-327,75
	15	0,96	1,55052E-001	-1,73027E-007	0,00000E+000	1,55000E-001	-1,18489E-003	9	..........a	0	-327,75
	16	1,02	1,52087E-001	-3,04680E-007	0,00000E+000	1,52000E-001	3,71611E-004	9	..........a	0	-327,75
	17	1,08	1,49055E-001	-3,94486E-007	0,00000E+000	1,49000E-001	-1,18656E-003	9	..........a	0	-327,75
	18	1,14	1,46252E-001	-4,81680E-007	0,00000E+000	1,46000E-001	3,93222E-004	9	..........a	0	-327,75
	19	1,2	1,43134E-001	-5,35975E-007	0,00000E+000	1,43000E-001	-1,18500E-003	9	..........a	0	-327,75
	20	1,26	1,40090E-001	-5,77266E-007	0,00000E+000	1,40000E-001	5,40111E-004	9	..........a	0	-327,75
	21	1,32	1,37059E-001	-6,29171E-007	0,00000E+000	1,37000E-001	-1,18467E-003	9	..........a	0	-327,75
	22	1,38	1,34077E-001	-6,82688E-007	0,00000E+000	1,34000E-001	3,24833E-004	9	..........a	0	-327,75
	23	1,44	1,31054E-001	-7,68381E-007	0,00000E+000	1,31000E-001	5,92000E-004	9	..........a	0	-327,75
	24	1,5	1,28082E-001	-7,96446E-007	0,00000E+000	1,28000E-001	-1,18228E-003	9	..........a	0	-327,75
	25	1,56	1,25064E-001	-8,78138E-007	0,00000E+000	1,25000E-001	4,20444E-004	9	..........a	0	-327,75
	26	1,62	1,22176E-001	-9,34267E-007	0,00000E+000	1,22000E-001	-1,18883E-003	9	..........a	0	-327,75
	27	1,68	1,19188E-001	-1,04914E-006	0,00000E+000	1,19000E-001	3,14056E-004	9	..........a	0	-327,75
	28	1,74	1,16159E-001	-1,06192E-006	0,00000E+000	1,16000E-001	-1,18172E-003	9	..........a	0	-327,75
	29	1,8	1,13069E-001	-1,06581E-006	0,00000E+000	1,13000E-001	4,73889E-004	9	..........a	0	-327,75
	30	1,86	1,10107E-001	-1,10254E-006	0,00000E+000	1,10000E-001	-1,18367E-003	9	..........a	0	-327,75
	31	1,92	1,07060E-001	-1,18707E-006	0,00000E+000	1,07000E-001	5,88722E-004	9	..........a	0	-327,75
	32	1,98	1,04102E-001	-1,17312E-006	0,00000E+000	1,04000E-001	3,26667E-004	9	..........a	0	-327,75
	33	2,04	1,01078E-001	-1,19063E-006	0,00000E+000	1,01000E-001	-1,18383E-003	9	..........a	0	-327,75
	34	2,1	9,82071E-002	-1,27310E-006	0,00000E+000	9,80000E-002	3,53667E-004	9	..........a	0	-327,75
	35	2,16	9,51905E-002	-1,38069E-006	0,00000E+000	9,50000E-002	-1,18378E-003	9	..........a	0	-327,75
	36	2,22	9,21740E-002	-1,39202E-006	0,00000E+000	9,20000E-002	5,06722E-004	9	..........a	0	-327,75
	37	2,28	8,90850E-002	-1,36268E-006	0,00000E+000	8,90000E-002	-1,18378E-003	9	..........a	0	-327,75
	38	2,34	8,61228E-002	-1,38897E-006	0,00000E+000	8,60000E-002	2,21833E-004	9	..........a	0	-327,75
	39	2,4	8,30757E-002	-1,46805E-006	0,00000E+000	8,30000E-002	5,70667E-004	9	..........a	0	-327,75
	40	2,46	8,01244E-002	-1,45804E-006	0,00000E+000	8,00000E-002	-1,18439E-003	9	..........a	0	-327,75
	41	2,52	7,70493E-002	-1,47599E-006	0,00000E+000	7,70000E-002	3,96500E-004	9	..........a	0	-327,75
	42	2,58	7,41807E-002	-1,51790E-006	0,00000E+000	7,40000E-002	-1,17539E-003	9	..........a	0	-327,75
	43	2,64	7,11679E-002	-1,56241E-006	0,00000E+000	7,10000E-002	4,19389E-004	9	..........a	0	-327,75
	44	2,7	6,81805E-002	-1,63121E-006	0,00000E+000	6,80000E-002	-1,17494E-003	9	..........a	0	-327,75
	45	2,76	6,50555E-002	-1,62843E-006	0,00000E+000	6,50000E-002	4,44667E-004	9	..........a	0	-327,75
	46	2,82	6,21341E-002	-1,63782E-006	0,00000E+000	6,20000E-002	-1,18133E-003	9	..........a	0	-327,75
	47	2,88	5,90955E-002	-1,68950E-006	0,00000E+000	5,90000E-002	5,71056E-004	9	..........a	0	-327,75
	48	2,94	5,61329E-002	-1,71785E-006	0,00000E+000	5,60000E-002	2,73833E-004	9	..........a	0	-327,75
	49	3	5,30701E-002	-1,73702E-006	0,00000E+000	5,30000E-002	-1,18328E-003	9	..........a	0	-327,75
	50	3,06	5,01789E-002	-1,73919E-006	0,00000E+000	5,00000E-002	5,96611E-004	9	..........a	0	-327,75
	51	3,12	4,71667E-002	-1,81793E-006	0,00000E+000	4,70000E-002	-1,18467E-003	9	..........a	0	-327,75
	52	3,18	4,41736E-002	-1,86345E-006	0,00000E+000	4,40000E-002	4,77000E-004	9	..........a	0	-327,75
	53	3,24	4,10618E-002	-1,85995E-006	0,00000E+000	4,10000E-002	-1,17806E-003	9	..........a	0	-327,75
	54	3,3	3,81308E-002	-1,86856E-006	0,00000E+000	3,80000E-002	2,48778E-004	9	..........a	0	-327,75
	55	3,36	3,50927E-002	-1,90807E-006	0,00000E+000	3,50000E-002	-1,18628E-003	9	..........a	0	-327,75
	56	3,42	3,21319E-002	-1,88862E-006	0,00000E+000	3,20000E-002	2,47056E-004	9	..........a	0	-327,75
	57	3,48	2,90747E-002	-1,88129E-006	0,00000E+000	2,90000E-002	2,96833E-004	9	..........a	0	-327,75
	58	3,54	2,61392E-002	-1,90613E-006	0,00000E+000	2,60000E-002	-1,18656E-003	9	..........a	0	-327,75
	59	3,6	2,31535E-002	-1,96026E-006	0,00000E+000	2,30000E-002	3,74222E-004	9	..........a	0	-327,75
	60	3,66	2,01836E-002	-1,99277E-006	0,00000E+000	2,00000E-002	-1,18250E-003	9	..........a	0	-327,75
	61	3,72	1,70942E-002	-2,02117E-006	0,00000E+000	1,70000E-002	5,89333E-004	9	..........a	0	-327,75
	62	3,78	1,41276E-002	-2,01344E-006	0,00000E+000	1,40000E-002	-1,18189E-003	9	..........a	0	-327,75
	63	3,84	1,10861E-002	-2,05445E-006	0,00000E+000	1,10000E-002	5,32944E-004	9	..........a	0	-327,75
	64	3,9	8,13337E-003	-2,06501E-006	0,00000E+000	8,00000E-003	4,92000E-004	9	..........a	0	-327,75
	65	3,96	5,10264E-003	-2,07502E-006	0,00000E+000	5,00000E-003	-1,17772E-003	9	..........a	0	-327,75
	66	4,02	2,23068E-003	-2,08557E-006	0,00000E+000	2,00000E-003	5,93778E-004	9	..........a	0	-327,75
	67	4,08	-7,86495E-004	-2,10541E-006	0,00000E+000	-1,00000E-003	-1,17311E-003	9	..........a	0	-327,75
	68	4,14	-3,81261E-003	-2,10569E-006	0,00000E+000	-4,00000E-003	4,53167E-004	9	..........a	0	-327,75
	69	4,2	-6,83226E-003	-2,12147E-006	0,00000E+000	-7,00000E-003	-1,17250E-003	9	..........a	0	-327,75
	70	4,26	-9,80655E-003	-2,09652E-006	0,00000E+000	-1,00000E-002	1,05389E-004	9	..........a	0	-327,75
	71	4,32	-1,28329E-002	-2,11758E-006	0,00000E+000	-1,30000E-002	-1,17828E-003	9	..........a	0	-327,75
	72	4,38	-1,58320E-002	-2,10736E-006	0,00000E+000	-1,60000E-002	4,78056E-004	9	..........a	0	-327,75
	73	4,44	-1,88360E-002	-2,09697E-006	0,00000E+000	-1,90000E-002	1,21389E-004	9	..........a	0	-327,75
	74	4,5	-2,17597E-002	-2,11364E-006	0,00000E+000	-2,20000E-002	-1,18111E-003	9	..........a	0	-327,75
	75	4,56	-2,47869E-002	-2,12142E-006	0,00000E+000	-2,50000E-002	3,30333E-004	9	..........a	0	-327,75
	76	4,62	-2,77908E-002	-2,12798E-006	0,00000E+000	-2,80000E-002	-1,17872E-003	9	..........a	0	-327,75
	77	4,68	-3,08116E-002	-2,13865E-006	0,00000E+000	-3,10000E-002	5,79556E-004	9	..........a	0	-327,75
	78	4,74	-3,37968E-002	-2,15232E-006	0,00000E+000	-3,40000E-002	-1,17056E-003	9	..........a	0	-327,75
	79	4,8	-3,68446E-002	-2,16277E-006	0,00000E+000	-3,70000E-002	5,13833E-004	9	..........a	0	-327,75
	80	4,86	-3,98239E-002	-2,14737E-006	0,00000E+000	-4,00000E-002	6,63778E-004	9	..........a	0	-327,75
